MCS Volumen AContact r h theta
0 14000.0 0.0 0.0 29.902658734369908 180.0
1 15645.0 99.0 5.613615477764332 30.015596865105458 158.81346642353702
2 17706.0 270.0 9.27058084855655 29.686329155660776 145.31444819423825
3 20281.0 477.0 12.322086499845234 29.37700032590263 134.48909322059282
4 23125.0 696.0 14.884343478431232 29.156872496037604 125.91212481609563
5 26112.0 954.0 17.42606184481555 28.724986644287437 117.51366940619138
6 28947.0 1224.0 19.738573927438622 28.17123229004615 109.9648938759644
7 31659.0 1560.0 22.283703068536735 27.151693908486063 101.24777133201266
8 34084.0 1800.0 23.936536824085962 26.74339850855869 96.3400710696113
9 36333.0 2049.0 25.538538658086665 26.23531889983624 91.54209707228623
10 38327.0 2274.0 26.904213074943115 25.800169589241335 87.59990426939883
11 39999.0 2478.0 28.085083193101518 25.37697236187062 84.20034221780143
12 41328.0 2679.0 29.201920914323004 24.852846572380997 80.80014530096528
13 42345.0 2829.0 30.00830998263554 24.495605363256534 78.44911567058651
14 43127.0 2949.0 30.638143781175756 24.20977230143323 76.63045543735203
15 43712.0 3066.0 31.240008179248324 23.869195127237194 74.76389095941403
16 44137.0 3147.0 31.649979649604663 23.649009958486744 73.53450835488638
17 44411.0 3213.0 31.98014484502094 23.444598137123872 72.49017876936199
18 44628.0 3270.0 32.26256852485548 23.263531182404055 71.58839359394959
19 44782.0 3315.0 32.48380015791358 23.11589041857594 70.87228885766943
20 44919.0 3363.0 32.7181317809573 22.949763238523143 70.09461048139738
21 45000.0 3393.0 32.86374056344776 22.845303067646523 69.61036405297443
22 45096.0 3420.0 32.99423905394037 22.76123952573337 69.20009084453244
23 45163.0 3438.0 33.08095205250103 22.706771049793403 68.9314209881994
24 45234.0 3462.0 33.19621704303494 22.627387417001422 68.55867838431115
25 45302.0 3474.0 33.253699713001694 22.600711677215145 68.40358458958681
26 45324.0 3492.0 33.33973788969849 22.52945520179338 68.09802233002202
27 45352.0 3507.0 33.41126712422853 22.4741474039382 67.85363694614327
28 45387.0 3525.0 33.49690058494759 22.40864431233461 67.56319668810582
29 45414.0 3534.0 33.53963532558928 22.379741767799114 67.4273930846161
30 45452.0 3546.0 33.59653042216892 22.342109707714915 67.24879842569604
31 45448.0 3561.0 33.6675140855466 22.27515057045607 66.97895482744165
32 45467.0 3579.0 33.75249742836501 22.20443897203726 66.67868633061487
33 45463.0 3594.0 33.82315376993316 22.138061601036885 66.4114092936598
34 45459.0 3615.0 33.92182540127231 22.04620609201559 66.04065702502339
35 45473.0 3627.0 33.97808054008656 22.000279836972297 65.84486081753508
36 45481.0 3630.0 33.992129778040685 21.99057074487889 65.80018011614197
37 45498.0 3642.0 34.04826875894523 21.94600305832494 65.60806369102112
38 45504.0 3651.0 34.09031232560095 21.910061867615962 65.45822894772641
39 45502.0 3657.0 34.11831258685169 21.883826732540207 65.35303650526926
40 45505.0 3669.0 34.17424428437779 21.83419409956342 65.14965998811361
41 45523.0 3693.0 34.28583395043409 21.740058851809593 64.75616527212998
42 45513.0 3702.0 34.327586554437424 21.6984574441881 64.59393721587354
43 45512.0 3714.0 34.383177824142415 21.64789922885953 64.38963422152227
44 45517.0 3720.0 34.41093978088511 21.624802560569368 64.292819249759
45 45507.0 3729.0 34.45254077102813 21.583491563139265 64.13183862188639
46 45513.0 3732.0 34.46639660942099 21.573337112843948 64.08685665726753
47 45512.0 3741.0 34.50793074372268 21.535618165421116 63.93470629490163
48 45525.0 3744.0 34.52176435050956 21.52819450497567 63.896338916059364
49 45542.0 3744.0 34.52176435050956 21.534732394857283 63.91196289954845
50 45539.0 3750.0 34.54941494713355 21.508756458207483 63.80870038980956
51 45578.0 3759.0 34.59084939929734 21.486576198275948 63.69408982616915
52 45590.0 3771.0 34.64601825317124 21.441765441437056 63.50516296141014
53 45586.0 3780.0 34.68733731168665 21.403277245731594 63.352019173267216
54 45585.0 3777.0 34.67356976309445 21.415201767895816 63.400881845798644
55 45579.0 3792.0 34.74235294865525 21.351468577579272 63.146939056160925
56 45553.0 3792.0 34.74235294865525 21.341513638950033 63.123102936252
57 45570.0 3813.0 34.83842126185964 21.262451738686085 62.79278325644825
58 45554.0 3813.0 34.83842126185964 21.256336559287526 62.77812678608414
59 45566.0 3816.0 34.8521236896311 21.248739753088312 62.73988582619998
60 45564.0 3822.0 34.87951239616815 21.2236399434267 62.639722641147486
61 45573.0 3828.0 34.906879612929465 21.20278001804973 62.549809454023276
62 45583.0 3834.0 34.934225390419826 21.182338194551217 62.46098551998655
63 45583.0 3846.0 34.988852828620416 21.133943431737414 62.26557530506707
64 45571.0 3846.0 34.988852828620416 21.12937101777371 62.25460264189428
65 45586.0 3864.0 35.070634442709576 21.06279582521613 61.97654864573474
66 45564.0 3861.0 35.05701742241653 21.066447291029533 62.004961913314254
67 45565.0 3858.0 35.04339511087738 21.078859013685747 62.054433941079296
68 45560.0 3855.0 35.02976750191918 21.08899634333036 62.09846566257274
69 45537.0 3858.0 35.04339511087738 21.068198766078954 62.02883304090817
70 45569.0 3864.0 35.070634442709576 21.056328642685212 61.96101771636495
71 45566.0 3867.0 35.0842461779175 21.0431761820448 61.90980793288478
72 45565.0 3873.0 35.11145381766214 21.018804074832023 61.81209198076463
73 45555.0 3879.0 35.13864039069986 20.991052841128862 61.70633679822647
74 45548.0 3879.0 35.13864039069986 20.988392805122484 61.699943360354226
75 45537.0 3894.0 35.20651497663012 20.92452386604361 61.44913930050753
76 45542.0 3891.0 35.19295053190525 20.93833968333005 61.50176595252859
77 45540.0 3909.0 35.27425895879937 20.866222985117176 61.21223635807768
78 45556.0 3912.0 35.28779214899948 20.86042719784305 61.17903070939404
79 45550.0 3921.0 35.328360614761664 20.822637092552462 61.030438918345794
80 45548.0 3921.0 35.328360614761664 20.821879959771298 61.0286162397471
81 45536.0 3930.0 35.3688825481142 20.78191402018866 60.87496363630768
82 45557.0 3942.0 35.42283968482062 20.742757535623856 60.70441407638947
83 45586.0 3954.0 35.47671475729832 20.706759042669187 60.541811018105705
84 45576.0 3957.0 35.490170746690694 20.691273454617026 60.48558503566617
85 45573.0 3972.0 35.55737431141417 20.631728790142173 60.24784541173803
86 45557.0 3972.0 35.55737431141417 20.625701159719537 60.233311736911155
87 45576.0 3981.0 35.597635552065405 20.59792844533117 60.11008921834721
88 45557.0 3984.0 35.61104585035691 20.579154983360645 60.046104699372556
89 45557.0 3987.0 35.624451100540114 20.567543035267448 59.99941280430645
90 45565.0 3987.0 35.624451100540114 20.570552724760134 60.00667343059798
91 45556.0 3996.0 35.66463661935206 20.532390210204202 59.85869326080523
92 45529.0 3999.0 35.6780217339608 20.510669703002844 59.78768271590272
93 45535.0 4008.0 35.71814698195629 20.47827277220019 59.65385180350421
94 45553.0 4011.0 35.73151205145375 20.473499104470744 59.62383067591668
95 45568.0 4017.0 35.758227204383154 20.456089427619407 59.54486791835017
96 45557.0 4026.0 35.7982625524751 20.417479463605336 59.39640363978181
97 45557.0 4020.0 35.77157729900708 20.440458659455366 59.48869362705928
98 45565.0 4017.0 35.758227204383154 20.45496404755074 59.5421506929332
99 45576.0 4026.0 35.7982625524751 20.424600764809007 59.413602495944914
100 45567.0 4035.0 35.838253176621144 20.386828691467823 59.267342662619605
101 45581.0 4047.0 35.89150469659639 20.346335821882374 59.09645282618503
102 45592.0 4056.0 35.93139154501889 20.316246437043066 58.96917668545286
103 45594.0 4056.0 35.93139154501889 20.31699371792336 58.97098254632262
104 45599.0 4062.0 35.95795819674078 20.2961065671984 58.884233609457866
105 45589.0 4068.0 35.98450523483212 20.269657856365832 58.784121631331814
106 45576.0 4065.0 35.97123416477546 20.276156716969766 58.81791041531577
107 45567.0 4077.0 36.024289111255406 20.227453917443196 58.62797510065772
108 45562.0 4074.0 36.01103270266993 20.236909611473557 58.66885186791797
109 45541.0 4074.0 36.01103270266993 20.229073916633237 58.649900358053415
110 45573.0 4092.0 36.09049811604256 20.173227067407883 58.407087277816686
111 45583.0 4095.0 36.103725346875535 20.165685746593585 58.37096303656555
112 45575.0 4101.0 36.13016528110169 20.140207620601956 58.273624129596186
113 45573.0 4104.0 36.14337799512211 20.128228094053654 58.22682136445237
114 45575.0 4113.0 36.182987188372536 20.095322600451073 58.09387121857359
115 45549.0 4101.0 36.13016528110169 20.13053267238646 58.25021062603987
116 45538.0 4101.0 36.13016528110169 20.126438761738722 58.24030170225731
117 45536.0 4113.0 36.182987188372536 20.08082642413519 58.05877831961261
118 45539.0 4128.0 36.24890633062862 20.026069884989376 57.83778673406537
119 45540.0 4134.0 36.275240446946604 20.004158785573622 57.749507530463426
120 45546.0 4143.0 36.31470581540548 19.97303039283347 57.62144744247452
121 45558.0 4155.0 36.367259686339445 19.933132797416317 57.454870981514134
122 45555.0 4149.0 36.34099225085286 19.954175197597934 57.54076918564888
123 45580.0 4158.0 36.380386291959596 19.930210265510055 57.430362444221856
124 45572.0 4155.0 36.367259686339445 19.938314554152928 57.4674257609981
125 45569.0 4158.0 36.380386291959596 19.926140432744923 57.42050191432684
126 45579.0 4158.0 36.380386291959596 19.929840296567065 57.429466109234674
127 45552.0 4161.0 36.39350816300557 19.908797463027778 57.36107146151397
128 45542.0 4158.0 36.380386291959596 19.916149216483554 57.396290912085476
129 45548.0 4170.0 36.43284541984618 19.874218160319334 57.22517839140005
130 45575.0 4182.0 36.48522912111986 19.840184053067123 57.073523127543886
131 45576.0 4191.0 36.52446759360452 19.807641766698584 56.9429792700209
132 45566.0 4197.0 36.550603173044486 19.782062158764894 56.84662743546383
133 45561.0 4197.0 36.550603173044486 19.780219277266436 56.842158625681435
134 45565.0 4212.0 36.61586050615398 19.72712807257286 56.627942100534746
135 45575.0 4218.0 36.64193089785566 19.709044888050006 56.550039730621876
136 45569.0 4215.0 36.6288980214349 19.71771453440246 56.588078975793486
137 45564.0 4215.0 36.6288980214349 19.715875048128588 56.58361707965327
138 45555.0 4212.0 36.61586050615398 19.723447781526904 56.61901508932009
139 45556.0 4212.0 36.61586050615398 19.723815824532178 56.61990785787801
140 45551.0 4209.0 36.602818347055944 19.732868453228352 56.65891520476871
141 45537.0 4215.0 36.6288980214349 19.705940489718767 56.55951637553393
142 45543.0 4209.0 36.602818347055944 19.72992300472905 56.651770242956715
143 45542.0 4218.0 36.64193089785566 19.696907155968546 56.52059469979515
144 45547.0 4221.0 36.654959140364355 19.687881930945778 56.4817122116052
145 45557.0 4233.0 36.70702586993376 19.648189575450505 56.31766253704628
146 45543.0 4239.0 36.73303155925316 19.621421734611534 56.218955814579644
147 45545.0 4233.0 36.70702586993376 19.64378230233169 56.3069675469567
148 45539.0 4239.0 36.73303155925316 19.61995341990582 56.21539206168872
149 45537.0 4239.0 36.73303155925316 19.619219244259472 56.21361009644187
150 45536.0 4242.0 36.746027502189136 19.608053836937806 56.169668630308635
151 45544.0 4245.0 36.759018850483365 19.6001996261566 56.133783688417125
152 45539.0 4251.0 36.784987782617165 19.576814278996956 56.04343685916211
153 45527.0 4257.0 36.81093839450982 19.550902975876564 55.94703241729512
154 45525.0 4263.0 36.83687072487971 19.528695920661832 55.85969673193565
155 45541.0 4272.0 36.875735026940866 19.502407479073785 55.74588860704775
156 45523.0 4263.0 36.83687072487971 19.527963462683648 55.85791808123762
157 45543.0 4269.0 36.862784812309044 19.51384607955503 55.79030286608944
158 45544.0 4269.0 36.862784812309044 19.51421202402398 55.79119143480979
159 45535.0 4281.0 36.91455841199794 19.468149361738313 55.61289880069762
160 45532.0 4278.0 36.90162182200474 19.47773096516956 55.65274665974343
161 45524.0 4284.0 36.92749046999213 19.453460380100797 55.560664723157124
162 45525.0 4290.0 36.95334100901381 19.432516822358828 55.47673934264543
163 45519.0 4296.0 36.97917347704738 19.40905443757673 55.38677041029482
164 45502.0 4296.0 36.97917347704738 19.402849033683818 55.37169320348307
165 45503.0 4302.0 37.00498791193787 19.381983121804463 55.28810656387882
166 45525.0 4302.0 37.00498791193787 19.390008418392373 55.30760645897447
167 45541.0 4305.0 37.01788837874493 19.38523796901524 55.27959929527987
168 45533.0 4305.0 37.01788837874493 19.3823211317648 55.27251301125771
169 45514.0 4311.0 37.04367583459182 19.354214058135476 55.171446353947815
170 45521.0 4317.0 37.06944535133247 19.335621029034343 55.09357255561269
171 45522.0 4323.0 37.09519696635303 19.31487721447338 55.01054765011287
172 45532.0 4314.0 37.056562833010744 19.350195765271174 55.145325768414224
173 45549.0 4317.0 37.06944535133247 19.34581739108806 55.11834797756314
174 45569.0 4323.0 37.09519696635303 19.33198039197344 55.052104817695835
175 45567.0 4326.0 37.10806607236597 19.320707190601702 55.00843219313304
176 45558.0 4329.0 37.12093071690997 19.30689812099308 54.95861690924257
177 45556.0 4326.0 37.10806607236597 19.316706085875214 54.99871125947403
178 45542.0 4329.0 37.12093071690997 19.30107961716672 54.944478712264115
179 45545.0 4332.0 37.13379090462191 19.29164570207491 54.90531190580936
180 45562.0 4335.0 37.14664664013069 19.287307908780832 54.87854715588749
181 45553.0 4341.0 37.17234477301419 19.263030689598878 54.78716315240518
182 45567.0 4350.0 37.21085869607808 19.23666804399342 54.6746569686968
183 45565.0 4356.0 37.23651251415192 19.215023149830024 54.58985631116446
184 45547.0 4368.0 37.28776720119881 19.166773496830626 54.408421273848894
185 45559.0 4383.0 37.35173665498774 19.11916058918558 54.21291227665826
186 45610.0 4392.0 37.390065794529015 19.10651127804433 54.134520877817245
187 45595.0 4389.0 37.37729378192939 19.111446020359022 54.162379930748536
188 45593.0 4389.0 37.37729378192939 19.110723531176557 54.16062397704466
189 45595.0 4398.0 37.415596740347624 19.08041868781059 54.03943072948398
190 45600.0 4392.0 37.390065794529015 19.102900289301576 54.12574519326729
191 45610.0 4395.0 37.40283344584685 19.09616711673653 54.09353395673695
192 45602.0 4398.0 37.415596740347624 19.082944903102124 54.04557072226707
193 45606.0 4395.0 37.40283344584685 19.09472321359926 54.09002487780483
194 45610.0 4395.0 37.40283344584685 19.09616711673653 54.09353395673695
195 45606.0 4392.0 37.390065794529015 19.105066916458895 54.13101076882599
196 45605.0 4389.0 37.37729378192939 19.11505829645354 54.17115887383382
197 45609.0 4395.0 37.40283344584685 19.095806145184785 54.09265670757648
198 45613.0 4404.0 37.441110276718746 19.066269760456176 53.97344240471671
199 45615.0 4416.0 37.492085263260826 19.025807073488146 53.81212070648367
200 45588.0 4410.0 37.46660643920819 19.036649991826053 53.869924580586726
201 45599.0 4416.0 37.492085263260826 19.0200442706197 53.798113238246174
202 45622.0 4422.0 37.51754678420115 19.00778752353152 53.736945752806676
203 45611.0 4428.0 37.542991037233904 18.98332566019058 53.64618528575719
204 45632.0 4428.0 37.542991037233904 18.990878834884246 53.66454395256455
205 45606.0 4431.0 37.5557066992538 18.971289509275213 53.60130535932347
206 45603.0 4434.0 37.56841805744458 18.95998223314232 53.558215273827216
207 45610.0 4428.0 37.542991037233904 18.982965954674313 53.645310915107935
208 45607.0 4419.0 37.50481818441693 19.012652797370535 53.76445039105026
209 45610.0 4428.0 37.542991037233904 18.982965954674313 53.645310915107935
210 45587.0 4434.0 37.56841805744458 18.95422994125397 53.544230441565304
211 45601.0 4446.0 37.61922053914905 18.918438146995506 53.394995031755975
212 45589.0 4452.0 37.64459607022283 18.8937722695395 53.304026326828456
213 45592.0 4452.0 37.64459607022283 18.89484878604002 53.30664387856142
214 45589.0 4455.0 37.65727742347802 18.883606795531158 53.26383905238401
215 45580.0 4452.0 37.64459607022283 18.890542571929796 53.29617295135987
216 45592.0 4461.0 37.68262732700428 18.864377531387127 53.186197752295755
217 45584.0 4470.0 37.72062023935376 18.831119566490525 53.059137957608684
218 45582.0 4470.0 37.72062023935376 18.830403234258092 53.05739594890199
219 45599.0 4467.0 37.70796018857282 18.846614724402595 53.11219472606152
220 45603.0 4476.0 37.7459276023076 18.81770332685604 52.99581308163525
221 45583.0 4482.0 37.77121800889865 18.790363694946677 52.898702592804746
222 45576.0 4479.0 37.75857492301846 18.79794529481328 52.93244329569866
223 45556.0 4476.0 37.7459276023076 18.800879947478546 52.95489914844856
224 45563.0 4476.0 37.7459276023076 18.803385936580014 52.96099455845426
225 45569.0 4470.0 37.72062023935376 18.82574680972435 53.04607160327366
226 45553.0 4467.0 37.70796018857282 18.830132887408052 53.07211184343062
227 45558.0 4476.0 37.7459276023076 18.801595957915676 52.956640760085904
228 45542.0 4470.0 37.72062023935376 18.816074306258134 53.022544668104956
229 45549.0 4473.0 37.73327604250783 18.80847365626569 52.988704527348304
230 45560.0 4476.0 37.7459276023076 18.802311957511968 52.958382318985514
231 45551.0 4473.0 37.73327604250783 18.809189936308425 52.99044686661324
232 45557.0 4458.0 37.669954507635644 18.861973074217477 53.19578029475406
233 45584.0 4467.0 37.70796018857282 18.841240845268484 53.09912729928906
234 45581.0 4476.0 37.7459276023076 18.8098292987776 52.97666550368907
235 45601.0 4482.0 37.77121800889865 18.796801916091727 52.91435902388628
236 45584.0 4491.0 37.809121900031 18.760513858921296 52.7803090345104
237 45586.0 4503.0 37.85960139100264 18.721071994262047 52.62357287692161
238 45576.0 4500.0 37.8469878303024 18.72752805064369 52.65445000637721
239 45591.0 4506.0 37.87221075068316 18.71283823251715 52.588389849211595
240 45585.0 4512.0 37.89741688375691 18.69068858688577 52.504258251690445
241 45580.0 4509.0 37.88481591353866 18.698905510954575 52.53936434772465
242 45571.0 4503.0 37.85960139100264 18.7157184325186 52.610551919604255
243 45577.0 4506.0 37.87221075068316 18.707843404730745 52.57624181055399
244 45570.0 4515.0 37.910013665518704 18.67535031813764 52.451849034853915
245 45582.0 4518.0 37.92260626299788 18.669644986171917 52.42288788808044
246 45603.0 4533.0 37.985506631755264 18.62732999397629 52.244809998740166
247 45600.0 4536.0 37.99807421080277 18.6163295689811 52.203076712828285
248 45597.0 4542.0 38.02319690724042 18.595422404332457 52.12232302995306
249 45591.0 4545.0 38.03575203286151 18.58338355624113 52.07811717026439
250 45594.0 4548.0 38.0483030155601 18.574550718842424 52.04172638220665
251 45605.0 4563.0 38.110995928427755 18.52908522571264 51.856871993865845
252 45599.0 4563.0 38.110995928427755 18.526958120453862 51.85169891004559
253 45579.0 4560.0 38.09846559899868 18.52972141842035 51.873238943926104
254 45571.0 4557.0 38.08593114707233 18.53674566011707 51.905159430604925
255 45577.0 4557.0 38.08593114707233 18.538874599475847 51.91033803117576
256 45564.0 4557.0 38.08593114707233 18.53426177915684 51.899117154035515
257 45552.0 4557.0 38.08593114707233 18.5300034009158 51.88875752258536
258 45550.0 4575.0 38.16107610236958 18.470264192781706 51.65470229188664
259 45546.0 4581.0 38.1860915597282 18.449239542769604 51.57412008352938
260 45558.0 4572.0 38.14856222234714 18.48291560751006 51.70022370291953
261 45555.0 4575.0 38.16107610236958 18.4720350887267 51.659010624263736
262 45560.0 4578.0 38.1735858801527 18.463996122169597 51.624727947119624
263 45559.0 4584.0 38.19859314512115 18.444048028433468 51.54680001633819
264 45565.0 4584.0 38.19859314512115 18.446170855515245 51.55196415460642
265 45567.0 4596.0 38.24855862513909 18.407787656839663 51.39999878729582
266 45564.0 4605.0 38.28598994248883 18.377498819315306 51.282555685511305
267 45552.0 4599.0 38.261039799765676 18.3927375667522 51.34878263336718
