MCS Volumen AContact r h theta
0 14000.0 0.0 0.0 29.902658734369908 180.0
1 15624.0 3.0 0.9772050238058398 30.986075398446467 176.38733386468735
2 17672.0 24.0 2.763953195770684 32.080462809910344 170.15146715688874
3 20275.0 102.0 5.698035485213008 32.87203835341642 160.33214274038497
4 23254.0 255.0 9.009385160867895 33.12465300302858 149.56902302049173
5 26258.0 471.0 12.244343853084386 32.82962241577926 139.0923561199655
6 29335.0 753.0 15.48183917680307 32.065240065548835 128.45535100743717
7 32210.0 1047.0 18.255696394123913 31.187528951144657 119.31464643936881
8 34738.0 1290.0 20.263754666327017 30.599303026213857 112.97261511562098
9 37073.0 1569.0 22.347890536298223 29.725823857851513 106.12826944780771
10 39142.0 1809.0 23.996303550890445 29.063474846737627 100.91032528602267
11 40801.0 2049.0 25.538538658086665 28.273781471701636 95.8196008364386
12 42095.0 2238.0 26.69040136976819 27.687161284145937 92.10026850832035
13 43017.0 2445.0 27.897449197361542 26.874488741431815 87.86005369062245
14 43724.0 2616.0 28.856518540128786 26.215760334496988 84.50945196983297
15 44216.0 2736.0 29.51094455619561 25.770805093138346 82.25899551028304
16 44553.0 2811.0 29.912691120369555 25.512672869740992 80.92203094840478
17 44825.0 2934.0 30.560124444498616 24.987243578491647 78.54175518799055
18 44999.0 2991.0 30.855548440689205 24.76917254564113 77.51124071443905
19 45124.0 3042.0 31.11749787131175 24.564625995518618 76.57619811662512
20 45224.0 3084.0 31.331576548121713 24.397171543412988 75.81412844371026
21 45295.0 3123.0 31.529062379842163 24.234640230266056 75.09496476853482
22 45358.0 3156.0 31.695204697178458 24.099644681510572 74.49553504384896
23 45386.0 3207.0 31.950270812489475 23.865681451331632 73.51676713893872
24 45428.0 3249.0 32.15880626222211 23.682912275009738 72.73855919467829
25 45449.0 3279.0 32.306936047800164 23.55004364446943 72.18013097090316
26 45484.0 3312.0 32.46909827883606 23.40984680170572 71.58234106540719
27 45507.0 3333.0 32.571872077769406 23.321575932631053 71.20559573658444
28 45533.0 3387.0 32.83467046438108 23.083827925073994 70.21689974401157
29 45535.0 3408.0 32.9363035587535 22.98910014768908 69.82905292517188
30 45553.0 3426.0 33.02316868602507 22.914743420116057 69.5134834500061
31 45597.0 3471.0 33.23933836501469 22.730075415776522 68.7310271818651
32 45599.0 3507.0 33.41126712422853 22.570998251656423 68.08202617202984
33 45606.0 3510.0 33.4255546028051 22.560486365455834 68.03454771214089
34 45628.0 3531.0 33.525396464694715 22.476613324028737 67.67860043804083
35 45625.0 3546.0 33.59653042216892 22.409701860079586 67.40850158520557
36 45626.0 3567.0 33.695865681379686 22.318503289568156 67.03711026044786
37 45613.0 3588.0 33.79490896018868 22.222375317122292 66.65510125140197
38 45625.0 3597.0 33.83726733356426 22.18817398490227 66.50826415087874
39 45628.0 3615.0 33.92182540127231 22.111882076331348 66.19649679888609
40 45626.0 3645.0 34.06228904727216 21.982851744247952 65.67414090810608
41 45649.0 3669.0 34.17424428437779 21.889894473751347 65.28219335691301
42 45650.0 3693.0 34.28583395043409 21.789082601770787 64.87295284137251
43 45672.0 3708.0 34.355393433484295 21.73464696976484 64.6382852969142
44 45676.0 3735.0 34.48024687986526 21.623578116650556 64.18607105227912
45 45693.0 3738.0 34.49409158906797 21.61764889457425 64.15122545244907
46 45689.0 3753.0 34.56323195026423 21.55395780303015 63.89610878936968
47 45701.0 3771.0 34.64601825317124 21.484308743610296 63.60684992814648
48 45688.0 3786.0 34.71485602867786 21.41773923455647 63.34599914510371
49 45667.0 3804.0 34.79728160421644 21.336145770586594 63.02954829544299
50 45667.0 3816.0 34.8521236896311 21.28731120724409 62.832294436154285
51 45654.0 3828.0 34.906879612929465 21.233681970921143 62.62388423712165
52 45640.0 3858.0 35.04339511087738 21.10739914100654 62.122940041715786
53 45648.0 3873.0 35.11145381766214 21.050344970857807 61.8878434919522
54 45643.0 3894.0 35.20651497663012 20.96473519208653 61.5458081396938
55 45638.0 3909.0 35.27425895879937 20.903349243672317 61.301539497951225
56 45656.0 3921.0 35.328360614761664 20.862744822789818 61.12694314411776
57 45663.0 3942.0 35.42283968482062 20.782785343552113 60.800791133961354
58 45662.0 3969.0 35.54394376350864 20.676913538863122 60.375540037460276
59 45693.0 3996.0 35.66463661935206 20.583857668684484 59.9828171124298
60 45695.0 4011.0 35.73151205145375 20.526769689889125 59.75236246547957
61 45694.0 4014.0 35.74487212372896 20.514856430558506 59.70513662997232
62 45706.0 4035.0 35.838253176621144 20.43884914259904 59.39293201552695
63 45704.0 4044.0 35.878199226372125 20.40374551147419 59.25332970796683
64 45686.0 4065.0 35.97123416477546 20.317207649126264 58.91710346425383
65 45675.0 4077.0 36.024289111255406 20.267715299861894 58.7252994631348
66 45672.0 4098.0 36.116947733455746 20.187538916701552 58.40594503941888
67 45667.0 4110.0 36.16978894347297 20.140716155784848 58.22145240982541
68 45673.0 4128.0 36.24890633062862 20.075781950152606 57.95812015793091
69 45673.0 4143.0 36.31470581540548 20.020074360692227 57.73535675925192
70 45692.0 4155.0 36.367259686339445 19.982704087662977 57.57491451713114
71 45691.0 4173.0 36.4459484036972 19.91601224975711 57.30909649886966
72 45686.0 4179.0 36.472140249265074 19.892135895698367 57.21666041831553
73 45703.0 4200.0 36.56366395715726 19.8215797336616 56.92525357203543
74 45705.0 4215.0 36.6288980214349 19.76771899704366 56.70929918415215
75 45702.0 4218.0 36.64193089785566 19.755725482818306 56.66320676581145
76 45690.0 4227.0 36.681001743394134 19.718703329428653 56.522518100608266
77 45677.0 4233.0 36.70702586993376 19.69223809633969 56.42449497828284
78 45672.0 4251.0 36.784987782617165 19.62554989719114 56.16168232121422
79 45660.0 4257.0 36.81093839450982 19.59961352147699 56.06523957765528
80 45657.0 4281.0 36.91455841199794 19.512720297775317 55.72109547146021
81 45640.0 4296.0 36.97917347704738 19.453197562178232 55.4939644187216
82 45643.0 4302.0 37.00498791193787 19.433028777486225 55.41207820663681
83 45635.0 4302.0 37.00498791193787 19.430113443132655 55.40500169010656
84 45643.0 4314.0 37.056562833010744 19.390612564850322 55.24348666824886
85 45662.0 4317.0 37.06944535133247 19.38694362539105 55.21822097181708
86 45666.0 4332.0 37.13379090462191 19.33561479726879 55.0121070518159
87 45671.0 4347.0 37.198025152431654 19.284869755811645 54.807878945920486
88 45691.0 4365.0 37.274960136695604 19.22933146382649 54.57642595854825
89 45668.0 4365.0 37.274960136695604 19.22100741225345 54.556212930318395
90 45687.0 4383.0 37.35173665498774 19.165418690715285 54.32530779150376
91 45697.0 4395.0 37.40283344584685 19.127560841705684 54.16980215222215
92 45710.0 4410.0 37.46660643920819 19.080605044116027 53.97672542032884
93 45708.0 4425.0 37.53027106701035 19.028462015880965 53.77150944080635
94 45688.0 4446.0 37.61922053914905 18.949664279494858 53.470887636338574
95 45695.0 4455.0 37.65727742347802 18.921616528106497 53.35622484932654
96 45698.0 4464.0 37.69529588588531 18.89221010667124 53.238424257886344
97 45665.0 4470.0 37.72062023935376 18.860121885827276 53.12964488440694
98 45670.0 4473.0 37.73327604250783 18.851789059592722 53.094021023848555
99 45670.0 4494.0 37.82174808902882 18.78117446297808 52.815302423921125
100 45664.0 4497.0 37.8343700643807 18.76897989285451 52.77043669937373
101 45684.0 4515.0 37.910013665518704 18.71596977120586 52.550611009302536
102 45688.0 4536.0 37.99807421080277 18.64760953234889 52.279124031576174
103 45678.0 4551.0 38.06084985943471 18.594471802901793 52.07526374279724
104 45669.0 4554.0 38.07339256857711 18.58138837352294 52.02857501828658
105 45666.0 4575.0 38.16107610236958 18.51133238207794 51.75457487090788
106 45678.0 4593.0 38.23607337635692 18.45676399560085 51.53372110321205
107 45698.0 4599.0 38.261039799765676 18.444284327554477 51.47411961064952
108 45707.0 4614.0 38.323384699841036 18.398745701911807 51.29056819634272
109 45692.0 4620.0 38.34829427978659 18.37403761315252 51.20149107563562
110 45673.0 4632.0 38.39806496170502 18.32860904728426 51.033233623052865
111 45669.0 4638.0 38.42292612647326 18.307883858291117 50.95404269299247
112 45670.0 4650.0 38.47260025985541 18.2696971806171 50.80379995894403
113 45668.0 4653.0 38.485008775017555 18.25938163230682 50.764413502035254
114 45678.0 4671.0 38.559376011088226 18.205374428849016 50.5476202506934
115 45689.0 4680.0 38.59650589548412 18.180574974131627 50.44480926058813
116 45691.0 4686.0 38.621239320576485 18.162214503330194 50.37191262121695
117 45696.0 4695.0 38.65830978758509 18.135431624517075 50.26453594565788
118 45699.0 4710.0 38.72001503002877 18.089089623207116 50.08177304337805
119 45675.0 4716.0 38.7446696107059 18.061830330423565 49.9875954887656
120 45687.0 4722.0 38.76930851278959 18.04714702408123 49.924038208723786
121 45686.0 4734.0 38.81853940057592 18.009169030473274 49.77620385967405
122 45687.0 4734.0 38.81853940057592 18.009516679232398 49.77704834685736
123 45681.0 4752.0 38.89226888657144 17.95123110240085 49.55259630059322
124 45687.0 4749.0 38.879990348337564 17.962660042010235 49.59412799166801
125 45698.0 4764.0 38.94134432424719 17.91981509747552 49.42136685212999
126 45712.0 4770.0 38.96585886512296 17.906052868005055 49.36057473268198
127 45715.0 4791.0 39.05153857028608 17.8421966367088 49.11022596543451
128 45706.0 4800.0 39.08820095223359 17.811398428407568 48.99485117816117
129 45698.0 4818.0 39.16142274782038 17.75347709798644 48.77346744306237
130 45704.0 4833.0 39.22233649244089 17.70978820801509 48.60054414863126
131 45701.0 4839.0 39.24667551835904 17.690510519243926 48.527114981735274
132 45711.0 4848.0 39.28315578233268 17.66663089222287 48.42931510827054
133 45713.0 4857.0 39.31960220036148 17.640071881748046 48.32515843598583
134 45718.0 4872.0 39.38027127239512 17.596529228762407 48.15363768120307
135 45708.0 4884.0 39.42873931692001 17.55704585820877 48.00543320536803
136 45722.0 4893.0 39.46505128714883 17.534859921323104 47.912459060837776
137 45709.0 4893.0 39.46505128714883 17.53042208066472 47.901697252974756
138 45718.0 4902.0 39.501329877270486 17.506594899222957 47.80488570888801
139 45736.0 4911.0 39.537575179170965 17.485895842098063 47.71579841309229
140 45738.0 4938.0 39.6461122681097 17.406475617727853 47.40738888784872
141 45736.0 4950.0 39.694255713009206 17.370393946822247 47.26882793112987
142 45747.0 4965.0 39.754353030863435 17.330034031571554 47.10746666140061
143 45743.0 4971.0 39.778366535337064 17.311097614243725 47.036266810827854
144 45731.0 4977.0 39.80236555202123 17.289488597612447 46.95865676362862
145 45726.0 4989.0 39.85032022670497 17.25279104268151 46.81941713448696
146 45717.0 4998.0 39.88624839649106 17.22357854263781 46.71106017603461
147 45716.0 5004.0 39.91018254109706 17.205829343628295 46.64307886444848
148 45710.0 5019.0 39.9699552008311 17.160410435701195 46.47086347514917
149 45710.0 5028.0 40.005775929634204 17.134461087680943 46.370870572344
150 45710.0 5025.0 39.993839251484076 17.143103500419834 46.40416841214234
151 45711.0 5040.0 40.05348706874727 17.10030061936124 46.23882195390871
152 45733.0 5055.0 40.113046190224225 17.064715685266215 46.09131632658147
153 45725.0 5055.0 40.113046190224225 17.06203548461641 46.084832927157166
154 45703.0 5055.0 40.113046190224225 17.0546642676256 46.067000360319255
155 45723.0 5076.0 40.196280701937106 17.0015238015441 45.853089843269444
156 45723.0 5085.0 40.23189992089083 16.975986272876348 45.75495511177066
157 45722.0 5109.0 40.32673069457759 16.907870798903637 45.49388379313961
158 45696.0 5115.0 40.350403564649625 16.882346251766542 45.40823394676899
159 45692.0 5127.0 40.397707688237645 16.847367984532085 45.275955010109286
160 45703.0 5133.0 40.42133899045648 16.834239786255175 45.2204408015194
161 45691.0 5145.0 40.46856019696776 16.796779345642317 45.08252072511177
162 45690.0 5154.0 40.50393997367734 16.771415729828004 44.9858350173101
163 45684.0 5157.0 40.515726367051705 16.761099014869636 44.94913872211479
164 45702.0 5181.0 40.609894364775435 16.700663038347766 44.70945394692842
165 45702.0 5181.0 40.609894364775435 16.700663038347766 44.70945394692842
166 45672.0 5178.0 40.59813531013054 16.69902812295457 44.717181697946785
167 45679.0 5169.0 40.562837692696185 16.726199497193296 44.817878660379
168 45683.0 5178.0 40.59813531013054 16.70266193544489 44.72595394660142
169 45669.0 5181.0 40.609894364775435 16.68976593738065 44.68315051745338
170 45670.0 5190.0 40.64515111663227 16.665324533147526 44.58921953095526
171 45666.0 5190.0 40.64515111663227 16.664004935723103 44.586034569544054
172 45667.0 5199.0 40.68037731228077 16.639627117752138 44.49238760936465
173 45673.0 5199.0 40.68037731228077 16.641604399211854 44.49715898068111
174 45687.0 5199.0 40.68037731228077 16.646217794008763 44.508290916275406
175 45691.0 5199.0 40.68037731228077 16.647535839449766 44.51147114424428
176 45686.0 5205.0 40.70384450622116 16.62944689463942 44.44467734705193
177 45697.0 5217.0 40.750738351848746 16.60026442655837 44.32813768749938
178 45690.0 5217.0 40.750738351848746 16.597962781061735 44.32258648826615
179 45699.0 5226.0 40.78587335336207 16.576390713782185 44.236089422204124
180 45707.0 5241.0 40.84436452546724 16.538266127248814 44.08697317245723
181 45688.0 5253.0 40.89109722327652 16.49956742301879 43.94817489996656
182 45693.0 5271.0 40.961096299717866 16.452702574922917 43.767356643367684
183 45700.0 5283.0 41.00769596928077 16.422787912221768 43.65029052361594
184 45683.0 5289.0 41.03097595751372 16.401185232555235 43.575839008148485
185 45650.0 5286.0 41.01933761492886 16.3984456144789 43.580445724404974
186 45675.0 5304.0 41.08911822269767 16.358559163255944 43.41736506959433
187 45675.0 5304.0 41.08911822269767 16.358559163255944 43.41736506959433
188 45687.0 5310.0 41.11235210537009 16.346502186138924 43.366092898858675
189 45672.0 5313.0 41.123964124272845 16.333653993204983 43.32406360869214
190 45664.0 5322.0 41.15878052457499 16.307187255312446 43.227130337086685
191 45674.0 5331.0 41.19356749840669 16.286626506908053 43.14453295416095
192 45694.0 5334.0 41.20515663001828 16.285189904919893 43.13005724128028
193 45681.0 5355.0 41.28618946468902 16.225694181882325 42.910186528220834
194 45681.0 5358.0 41.297752604382126 16.21782361175181 42.88034375717795
195 45677.0 5355.0 41.28618946468902 16.224400108793215 42.907075278097075
196 45671.0 5370.0 41.343972823217605 16.18317790764341 42.753506310871686
197 45679.0 5376.0 41.367063566611286 16.17009340974582 42.7003558067701
198 45690.0 5379.0 41.378604106260156 16.165817710559136 42.6792458871026
199 45688.0 5376.0 41.367063566611286 16.172997766464057 42.70733466862534
200 45700.0 5397.0 41.4477798649568 16.122221540184402 42.509753470900804
201 45685.0 5403.0 41.4708128091435 16.101841655610585 42.439321153173914
202 45699.0 5400.0 41.45929793656026 16.114119018301864 42.47954266280719
203 45706.0 5412.0 41.50533825939352 16.085310685199044 42.36748087367286
204 45710.0 5421.0 41.53983501414431 16.06336723377038 42.28276379038025
205 45703.0 5424.0 41.55132756797165 16.053391482898686 42.24816520975833
206 45699.0 5430.0 41.574303144827134 16.036670212146685 42.186760597133805
207 45695.0 5436.0 41.597266031496424 16.019976572796498 42.125476474666726
208 45700.0 5454.0 41.666078760142454 15.975496122464548 41.95537742654079
209 45690.0 5460.0 41.68899109553381 15.9569917929776 41.889966226571545
210 45690.0 5478.0 41.7576526700772 15.911223399887772 41.71741402123604
211 45682.0 5487.0 41.79194115485017 15.885877284984703 41.62541682827909
212 45688.0 5505.0 41.86043386590454 15.842363754245026 41.45897351035047
213 45694.0 5520.0 41.917425633434654 15.806586646384009 41.32178287813336
214 45710.0 5535.0 41.97434001896017 15.7741256263193 41.192843795969594
215 45704.0 5559.0 42.06524286505062 15.712497265587436 40.964019565525064
216 45710.0 5568.0 42.099280828433955 15.69209356337356 40.88489187857838
217 45709.0 5580.0 42.14462201640385 15.662134233316326 40.77298161830384
218 45710.0 5589.0 42.17859592116843 15.640280372329512 40.690652334974814
219 45718.0 5586.0 42.16727432764246 15.650181404625982 40.72433237634217
220 45709.0 5589.0 42.17859592116843 15.639965782064833 40.689900962673434
221 45695.0 5601.0 42.22385193839391 15.606095422009636 40.56900640253223
222 45696.0 5607.0 42.246461767022744 15.591713004980413 40.51473123844099
223 45718.0 5613.0 42.26905950159782 15.58394205229593 40.476285530000794
224 45719.0 5607.0 42.246461767022744 15.598933131322886 40.531966766970584
225 45715.0 5604.0 42.23515836567874 15.605024893303852 40.55647505876569
226 45717.0 5607.0 42.246461767022744 15.598305326078568 40.530468177317935
227 45726.0 5616.0 42.28035383967556 15.57912105629976 40.45484610129848
228 45728.0 5631.0 42.33678033460888 15.543186087093774 40.31960185866866
229 45723.0 5640.0 42.37060016186435 15.519758059822498 40.23415151671356
230 45729.0 5652.0 42.41565131777166 15.492564819706205 40.1300337830777
231 45711.0 5658.0 42.43815896133912 15.472450316671466 40.0625136286368
232 45686.0 5664.0 42.46065467400368 15.450184597859032 39.98991967608463
233 45706.0 5682.0 42.52807041585944 15.413155269471329 39.843372869463266
234 45712.0 5682.0 42.52807041585944 15.415021978957059 39.84781867438007
235 45716.0 5688.0 42.55051859394197 15.401889910843474 39.797183684643976
236 45724.0 5691.0 42.56173824307405 15.39719668601857 39.776342790482
237 45720.0 5709.0 42.62899412633684 15.352998781980675 39.61336493189632
238 45723.0 5721.0 42.673772493857 15.32540888032039 39.50941685801498
239 45717.0 5733.0 42.718503923846306 15.295127121100474 39.39925888209282
240 45720.0 5739.0 42.74085208332626 15.28187721414291 39.34874811979681
241 45730.0 5742.0 42.752021782218975 15.277885908320378 39.32977017534823
242 45724.0 5748.0 42.77435242974964 15.261889158256656 39.27280070482103
243 45713.0 5754.0 42.79667142549209 15.244376006355534 39.21227728357225
244 45720.0 5769.0 42.85241805772795 15.211337799730188 39.08670716317292
245 45692.0 5781.0 42.8969632028713 15.174674725273634 38.962167331539526
246 45688.0 5793.0 42.94146213932054 15.145496626314353 38.85559420036623
247 45699.0 5808.0 42.997021047456954 15.114061363976095 38.73459308899542
248 45687.0 5808.0 42.997021047456954 15.110383470586838 38.72586884307335
249 45709.0 5817.0 43.03032195941729 15.096303483616136 38.66474411358034
250 45706.0 5829.0 43.07468312785732 15.067702193010303 38.560095951711645
251 45700.0 5829.0 43.07468312785732 15.065867938314227 38.55574822111743
252 45703.0 5844.0 43.130070424914365 15.032310122349434 38.43039951447304
253 45711.0 5862.0 43.19644143687511 14.99356148568439 38.28395720128825
254 45701.0 5871.0 43.229588730232386 14.97000024819595 38.20097751435619
255 45723.0 5871.0 43.229588730232386 14.976691908703566 38.21681545559969
256 45732.0 5877.0 43.2516728127611 14.965772820882965 38.17288232214682
257 45734.0 5880.0 43.26271062659723 14.959560580189155 38.149150900158205
258 45730.0 5874.0 43.24063218135908 14.971990176111687 38.19663686807153
259 45734.0 5865.0 43.207493360156086 14.99371660292264 38.27524415928525
260 45737.0 5886.0 43.284777810193184 14.946847832641772 38.101039233404244
261 45723.0 5877.0 43.2516728127611 14.963037469582995 38.16641001489626
262 45731.0 5892.0 43.30683374936218 14.931425563075114 38.046564180499665
263 45725.0 5916.0 43.394945404543435 14.875428260458877 37.84258103760188
264 45698.0 5910.0 43.372934271803686 14.880765179428941 37.87303422662463
265 45700.0 5901.0 43.33989661236571 14.901670657810017 37.94928353107169
266 45706.0 5886.0 43.284777810193184 14.937435947761715 38.07877543722188
